Neutron energy intervals (eV)
1.96403e+7 1.73325e+7 1.69046e+7 1.64872e+7 1.56831e+7 1.49183e+7
1.45499e+7 1.41907e+7 1.38403e+7 1.34986e+7 1.28400e+7 1.25232e+7
1.22140e+7 1.16183e+7 1.10517e+7 1.05127e+7 1.00000e+7 9.51229e+6
9.04837e+6 8.60708e+6 8.18731e+6 7.78801e+6 7.40818e+6 7.04688e+6
6.70320e+6 6.59238e+6 6.37628e+6 6.06531e+6 5.76950e+6 5.48812e+6
5.22046e+6 4.96585e+6 4.72367e+6 4.49329e+6 4.06570e+6 3.67879e+6
3.32871e+6 3.16637e+6 3.01194e+6 2.86505e+6 2.72532e+6 2.59240e+6
2.46597e+6 2.38521e+6 2.36525e+6 2.34570e+6 2.30686e+6 2.23130e+6
2.12248e+6 2.01897e+6 1.92050e+6 1.82684e+6 1.73774e+6 1.65299e+6
1.57237e+6 1.49569e+6 1.42274e+6 1.35335e+6 1.28735e+6 1.22456e+6
1.16484e+6 1.10803e+6 1.00259e+6 9.61640e+5 9.07180e+5 8.62936e+5
8.20850e+5 7.80817e+5 7.42736e+5 7.06512e+5 6.72055e+5 6.39279e+5
6.08101e+5 5.78444e+5 5.50232e+5 5.23397e+5 4.97871e+5 4.50492e+5
4.07622e+5 3.87742e+5 3.68832e+5 3.33733e+5 3.01974e+5 2.98491e+5
2.97211e+5 2.94518e+5 2.87247e+5 2.73237e+5 2.47235e+5 2.35177e+5
2.23708e+5 2.12797e+5 2.02419e+5 1.92547e+5 1.83156e+5 1.74224e+5
1.65727e+5 1.57644e+5 1.49956e+5 1.42642e+5 1.35686e+5 1.29068e+5
1.22773e+5 1.16786e+5 1.11090e+5 9.80366e+4 8.65169e+4 8.25034e+4
7.94987e+4 7.19981e+4 6.73794e+4 5.65622e+4 5.24752e+4 4.63092e+4
4.08677e+4 3.43067e+4 3.18278e+4 2.85011e+4 2.70001e+4 2.60584e+4
2.47875e+4 2.41755e+4 2.35786e+4 2.18749e+4 1.93045e+4 1.50344e+4
1.17088e+4 1.05946e+4 9.11882e+3 7.10174e+3 5.53084e+3 4.30742e+3
3.70744e+3 3.35463e+3 3.03539e+3 2.74654e+3 2.61259e+3 2.48517e+3
2.24867e+3 2.03468e+3 1.58461e+3 1.23410e+3 9.61116e+2 7.48518e+2
5.82947e+2 4.53999e+2 3.53575e+2 2.75364e+2 2.14454e+2 1.67017e+2
1.30073e+2 1.01301e+2 7.88932e+1 6.14421e+1 4.78512e+1 3.72665e+1
2.90232e+1 2.26033e+1 1.76035e+1 1.37096e+1 1.06770e+1 8.31529e+0
6.47595e+0 5.04348e+0 3.92786e+0 3.05902e+0 2.38237e+0 1.85539e+0
1.44498e+0 1.12535e+0 8.76425e-1 6.82560e-1 5.31578e-1 4.13994e-1
1.00001e-1 1.00001e-5

Gamma energy intervals (eV)
5.0E+7 3.0E+7 2.0E+7 1.4E+7 1.2E+7 1.0E+7 8.0E+6 7.5E+6 7.0E+6 6.5E+6
6.0E+6 5.5E+6 5.0E+6 4.5E+6 4.0E+6 3.5E+6 3.0E+6 2.5E+6 2.0E+6 1.66E+6
1.5E+6 1.34E+6 1.33E+6 1.E+6 8.E+5 7.E+5 6.0E+5 5.12E+5 5.1E+5 4.5E+5
4.0E+5 3.0E+5 2.0E+5 1.5E+5 1.0E+5 7.5E+4 7.0E+4 6.0E+4 4.5E+4 3.0E+4
2.0E+4 1.0E+4 1.0E+3

Neutron source (prompt * 0.99772 + delayed * 0.00288) 
1.89391e-5 5.51130e-6 7.19393e-6 2.18978e-5 3.50090e-5 2.40955e-5
3.00150e-5 3.74753e-5 4.58546e-5 1.24237e-4 8.34217e-5 1.00455e-4
2.60570e-4 3.70966e-4 5.17385e-4 7.02503e-4 9.35122e-4 1.22181e-3
1.56576e-3 1.98535e-3 2.47780e-3 3.05194e-3 3.72009e-3 4.44952e-3
1.66171e-3 3.61793e-3 6.19637e-3 7.16655e-3 8.19455e-3 9.29822e-3
1.04401e-2 1.15908e-2 1.27608e-2 2.92693e-2 3.37687e-2 3.78867e-2
2.02408e-2 2.09706e-2 2.17282e-2 2.22251e-2 2.26540e-2 2.31296e-2
1.54690e-2 3.96384e-3 3.90409e-3 7.72850e-3 1.57312e-2 2.35187e-2 
2.35024e-2 2.34118e-2 2.32256e-2 2.29446e-2 2.25752e-2 2.21462e-2
2.16408e-2 2.12938e-2 2.06648e-2 2.00312e-2 1.94559e-2 1.88563e-2
1.81065e-2 3.42606e-2 1.35003e-2 1.80936e-2 1.47798e-2 1.41350e-2
1.34634e-2 1.28386e-2 1.22114e-2 1.15940e-2 1.10054e-2 1.04396e-2
9.90952e-3 9.38314e-3 8.85314e-3 8.37672e-3 1.53689e-2 1.36132e-2
6.22772e-3 5.86934e-3 1.06537e-2 9.37795e-3 1.00813e-3 3.73533e-4
7.70243e-4 2.08990e-3 4.00030e-3 7.23225e-3 3.27519e-3 3.05629e-3
2.85722e-3 2.66994e-3 2.49371e-3 2.33154e-3 2.17975e-3 2.03177e-3
1.90074e-3 1.77346e-3 1.65307e-3 1.53795e-3 1.43542e-3 1.33886e-3
1.24863e-3 1.16372e-3 2.56641e-3 2.14910e-3 7.22329e-4 5.30393e-4
1.28283e-3 7.58513e-4 1.68226e-3 6.01253e-4 8.65336e-4 7.22359e-4
8.12834e-4 2.89602e-4 3.72058e-4 1.62403e-4 9.89946e-5 1.31422e-4
6.25762e-5 6.00083e-5 1.67503e-4 2.40706e-4 3.66505e-4 2.53468e-4
7.82063e-5 9.65641e-5 1.19027e-4 8.22498e-5 5.68101e-5 2.53227e-5
1.40349e-5 1.21074e-5 1.04579e-5 4.66409e-6 4.34204e-6 7.79133e-6
6.71859e-6 1.30270e-5 9.02635e-6 6.27003e-6 4.34906e-6 3.02612e-6
2.10678e-6 1.46893e-6 1.02694e-6 7.18236e-7 5.03619e-7 3.54095e-7
2.49430e-7 1.76115e-7 1.24726e-7 8.86117e-8 6.31066e-8 4.51127e-8
3.23829e-8 2.32961e-8 1.68357e-8 1.22126e-8 8.89099e-9 6.49850e-9
4.76950e-9 3.51282e-9 2.59765e-9 1.92859e-9 1.43617e-9 1.07387e-9
8.05441e-10 6.06168e-10 4.57428e-10 3.46246e-10 2.62761e-10 
6.56503e-10 1.94129e-10

Gamma source (prompt * 2.91631 + delayed * 2.84) 
0 0 0 0 2.901e-5 7.78722e-5 8.24385e-5 1.75016e-4 3.56073e-4 7.58514e-4
1.47766e-3 2.75624e-3 4.93757e-3 8.58477e-3 1.51887e-2 2.67584e-2
4.73820e-2 2.30531e-1 3.50141e-1 1.76054e-1 6.05385e-1 3.84311e-2
1.31133e+0 4.02572e-1 2.58897e-1 3.28208e-1 3.22532e-1 7.57610e-3
2.37528e-1 1.30762e-1 2.67520e-1 2.63498e-1 1.55676e-1 1.68211e-1
9.92160e-2 1.98432e-2 3.96864e-2 5.95296e-2 5.95296e-2 3.96864e-2
3.96864e-2 3.57178e-2 
